  time (s)              T(t) (K)              P(t) (Pa)           Kinetic En. (n.u.)     Potential En. (n.u.) Total En. (n.u.)
  0.0000e+00           99.82304616            0.00000000        2276.12983954           -0.90903263         2275.22080691 
  5.0000e-15           99.43006643            0.00000000        2267.16925470           -0.89481903         2266.27443566 
  1.0000e-14           98.77588380            0.00000000        2252.25281323           -0.87973108         2251.37308215 
  1.5000e-14           97.86274191            0.00000000        2231.43167453           -0.86382152         2230.56785301 
  2.0000e-14           96.69420692            0.00000000        2204.78715238           -0.84715771         2203.93999467 
  2.5000e-14           95.27544708            0.00000000        2172.43709170           -0.82982196         2171.60726974 
  3.0000e-14           93.61359318            0.00000000        2134.54408609           -0.81191170         2133.73217439 
  3.5000e-14           91.71817531            0.00000000        2091.32543719           -0.79353941         2090.53189778 
  4.0000e-14           89.60162563            0.00000000        2043.06461894           -0.77483214         2042.28978679 
  4.5000e-14           87.27982724            0.00000000        1990.12379217           -0.75593085         1989.36786132 
  5.0000e-14           84.77267539            0.00000000        1932.95660142           -0.73698924         1932.21961218 
  5.5000e-14           82.10459940            0.00000000        1872.12007501           -0.71817233         1871.40190268 
  6.0000e-14           79.30497260            0.00000000        1808.28397361           -0.69965451         1807.58431909 
  6.5000e-14           76.40831815            0.00000000        1742.23548195           -0.68161734         1741.55386462 
  7.0000e-14           73.45420664            0.00000000        1674.87687468           -0.66424683         1674.21262785 
  7.5000e-14           70.48674794            0.00000000        1607.21392950           -0.64773057         1606.56619894 
  8.0000e-14           67.55361228            0.00000000        1540.33360634           -0.63225439         1539.70135195 
  8.5000e-14           64.70457698            0.00000000        1475.37090963           -0.61799899         1474.75291064 
  9.0000e-14           61.98967523            0.00000000        1413.46667893           -0.60513631         1412.86154262 
  9.5000e-14           59.45710104            0.00000000        1355.71981680           -0.59382603         1355.12599077 
  1.0000e-13           57.15107350            0.00000000        1303.13859138           -0.58421207         1302.55437931 
  1.0500e-13           55.10987046            0.00000000        1256.59580053           -0.57641936         1256.01938117 
  1.1000e-13           53.36420805            0.00000000        1216.79182305           -0.57055097         1216.22127208 
  1.1500e-13           51.93608655            0.00000000        1184.22830089           -0.56668565         1183.66161523 
  1.2000e-13           50.83816250            0.00000000        1159.19382452           -0.56487594         1158.62894858 
  1.2500e-13           50.07365433            0.00000000        1141.76177931           -0.56514689         1141.19663242 
  1.3000e-13           49.63674418            0.00000000        1131.79950848           -0.56749542         1131.23201305 
  1.3500e-13           49.51340384            0.00000000        1128.98714557           -0.57189045         1128.41525512 
  1.4000e-13           49.68254684            0.00000000        1132.84388447           -0.57827361         1132.26561086 
  1.4500e-13           50.11739509            0.00000000        1142.75914071           -0.58656065         1142.17258006 
  1.5000e-13           50.78694778            0.00000000        1158.02604452           -0.59664350         1157.42940102 
  1.5500e-13           51.65745157            0.00000000        1177.87496458           -0.60839274         1177.26657184 
  1.6000e-13           52.69379097            0.00000000        1201.50520949           -0.62166061         1200.88354887 
  1.6500e-13           53.86074066            0.00000000        1228.11358424           -0.63628426         1227.47729998 
  1.7000e-13           55.12404482            0.00000000        1256.91899934           -0.65208922         1256.26691012 
  1.7500e-13           56.45130757            0.00000000        1287.18277572           -0.66889299         1286.51388272 
  1.8000e-13           57.81269408            0.00000000        1318.22463025           -0.68650863         1317.53812162 
  1.8500e-13           59.18145184            0.00000000        1349.43456110           -0.70474812         1348.72981298 
  1.9000e-13           60.53426772            0.00000000        1380.28099101           -0.72342566         1379.55756535 
  1.9500e-13           61.85147952            0.00000000        1410.31558916           -0.74236058         1409.57322858 
  2.0000e-13           63.11716037            0.00000000        1439.17519682           -0.76137996         1438.41381686 
  2.0500e-13           64.31909323            0.00000000        1466.58124537           -0.78032087         1465.80092450 
  2.1000e-13           65.44864973            0.00000000        1492.33699374           -0.79903220         1491.53796154 
  2.1500e-13           66.50058459            0.00000000        1516.32284083           -0.81737607         1515.50546476 
  2.2000e-13           67.47275411            0.00000000        1538.48990685           -0.83522892         1537.65467793 
  2.2500e-13           68.36576579            0.00000000        1558.85204371           -0.85248213         1557.99956158 
  2.3000e-13           69.18256663            0.00000000        1577.47644798           -0.86904234         1576.60740564 
  2.3500e-13           69.92798097            0.00000000        1594.47312241           -0.88483146         1593.58829095 
  2.4000e-13           70.60821430            0.00000000        1609.98356256           -0.89978642         1609.08377614 
  2.4500e-13           71.23034709            0.00000000        1624.16921476           -0.91385864         1623.25535612 
  2.5000e-13           71.80184970            0.00000000        1637.20041531           -0.92701336         1636.27340195 
  2.5500e-13           72.33015357            0.00000000        1649.24661358           -0.93922883         1648.30738475 
  2.6000e-13           72.82231203            0.00000000        1660.46863708           -0.95049532         1659.51814176 
  2.6500e-13           73.28477426            0.00000000        1671.01353751           -0.96081412         1670.05272339 
  2.7000e-13           73.72327989            0.00000000        1681.01218789           -0.97019650         1680.04199139 
  2.7500e-13           74.14286289            0.00000000        1690.57937129           -0.97866258         1689.60070871 
  2.8000e-13           74.54793734            0.00000000        1699.81573590           -0.98624026         1698.82949564 
  2.8500e-13           74.94242885            0.00000000        1708.81079189           -0.99296415         1707.81782774 
  2.9000e-13           75.32991569            0.00000000        1717.64612997           -0.99887452         1716.64725545 
  2.9500e-13           75.71375125            0.00000000        1726.39821291           -1.00401631         1725.39419660 
  3.0000e-13           76.09715048            0.00000000        1735.14034665           -1.00843820         1734.13190846 
  3.0500e-13           76.48323420            0.00000000        1743.94369135           -1.01219165         1742.93149971 
  3.1000e-13           76.87503393            0.00000000        1752.87737024           -1.01533013         1751.86204011 
  3.1500e-13           77.27546492            0.00000000        1762.00785636           -1.01790829         1760.98994807 
  3.2000e-13           77.68727807            0.00000000        1771.39787419           -1.01998126         1770.37789293 
  3.2500e-13           78.11300133            0.00000000        1781.10506558           -1.02160396         1780.08346162 
  3.3000e-13           78.55488125            0.00000000        1791.18065554           -1.02283047         1790.15782507 
  3.3500e-13           79.01483354            0.00000000        1801.66832530           -1.02371352         1800.64461178 
  3.4000e-13           79.49441007            0.00000000        1812.60345986           -1.02430392         1811.57915594 
  3.4500e-13           79.99478732            0.00000000        1824.01288521           -1.02465017         1822.98823504 
  3.5000e-13           80.51677849            0.00000000        1835.91514341           -1.02479799         1834.89034542 
  3.5500e-13           81.06086767            0.00000000        1848.32127264           -1.02479003         1847.29648261 
  3.6000e-13           81.62726072            0.00000000        1861.23596709           -1.02466553         1860.21130156 
  3.6500e-13           82.21594329            0.00000000        1874.65889908           -1.02446008         1873.63443899 
  3.7000e-13           82.82673286            0.00000000        1888.58590710           -1.02420547         1887.56170163 
  3.7500e-13           83.45931027            0.00000000        1903.00971385           -1.02392949         1901.98578436 
  3.8000e-13           84.11321706            0.00000000        1917.91986540           -1.02365585         1916.89620955 
  3.8500e-13           84.78781035            0.00000000        1933.30170323           -1.02340420         1932.27829903 
  3.9000e-13           85.48217664            0.00000000        1949.13439817           -1.02319005         1948.11120812 
  3.9500e-13           86.19501797            0.00000000        1965.38835444           -1.02302489         1964.36532955 
  4.0000e-13           86.92453509            0.00000000        1982.02254614           -1.02291628         1980.99962986 
  4.0500e-13           87.66833770            0.00000000        1998.98247048           -1.02286795         1997.95960252 
  4.1000e-13           88.42340776            0.00000000        2016.19931123           -1.02288004         2015.17643119 
  4.1500e-13           89.18612896            0.00000000        2033.59061080           -1.02294922         2032.56766159 
  4.2000e-13           89.95237821            0.00000000        2051.06235556           -1.02306899         2050.03928657 
  4.2500e-13           90.71766009            0.00000000        2068.51204267           -1.02322989         2067.48881278 
  4.3000e-13           91.47725861            0.00000000        2085.83213973           -1.02341978         2084.80871995 
  4.3500e-13           92.22638261            0.00000000        2102.91340049           -1.02362409         2101.88977640 
  4.4000e-13           92.96029019            0.00000000        2119.64770206           -1.02382610         2118.62387596 
  4.4500e-13           93.67438850            0.00000000        2135.93031935           -1.02400725         2134.90631211 
  4.5000e-13           94.36431427            0.00000000        2151.66176310           -1.02414738         2150.63761572 
  4.5500e-13           95.02600622            0.00000000        2166.74942933           -1.02422501         2165.72520432 
  4.6000e-13           95.65578087            0.00000000        2181.10932840           -1.02421762         2180.08511078 
  4.6500e-13           96.25042055     80467840.79271355        2194.66809242           -1.02410191         2193.64399051 
  4.7000e-13           96.80826945            0.00000000        2207.38796602           -1.02385403         2206.36411199 
  4.7500e-13           97.32621046            0.00000000        2219.19787390           -1.02344987         2218.17442404 
  4.8000e-13           97.80305792            0.00000000        2230.07078115           -1.02286525         2229.04791590 
  4.8500e-13           98.23850517            0.00000000        2239.99969554           -1.02207621         2238.97761933 
  4.9000e-13           98.63316825            0.00000000        2248.99866378           -1.02105921         2247.97760457 
  4.9500e-13           98.98856603     94972998.72779362        2257.10231853           -1.01979136         2256.08252716 
  5.0000e-13           99.30766187            0.00000000        2264.37822905           -1.01825070         2263.35997835 
  5.0500e-13           99.59277114            0.00000000        2270.87918988           -1.01641634         2269.86277354 
  5.1000e-13           99.84726944            0.00000000        2276.68217023           -1.01426880         2275.66790143 
  5.1500e-13          100.07468522            0.00000000        2281.86762457           -1.01179016         2280.85583441 
  5.2000e-13          100.27844744            0.00000000        2286.51373863           -1.00896434         2285.50477428 
  5.2500e-13          100.46167271            0.00000000        2290.69157652           -1.00577736         2289.68579916 
  5.3000e-13          100.62701459            0.00000000        2294.46164378           -1.00221750         2293.45942628 
  5.3500e-13          100.77658119            0.00000000        2297.87200859           -0.99827567         2296.87373292 
  5.4000e-13          100.91191187            0.00000000        2300.95777090           -0.99394552         2299.96382538 
  5.4500e-13          101.03399489            0.00000000        2303.74146487           -0.98922379         2302.75224108 
  5.5000e-13          101.14330778            0.00000000        2306.23397878           -0.98411048         2305.24986830 
  5.5500e-13          101.23986948            0.00000000        2308.43574448           -0.97860909         2307.45713539 
  5.6000e-13          101.32330360            0.00000000        2310.33817975           -0.97272685         2309.36545290 
  5.6500e-13          101.39291989            0.00000000        2311.92554595           -0.96647487         2310.95907108 
  5.7000e-13          101.44782303     53725445.42242643        2313.17742791           -0.95986835         2312.21755957 
  5.7500e-13          101.48814275            0.00000000        2314.09678401           -0.95292670         2313.14385732 
  5.8000e-13          101.51191970            0.00000000        2314.63893746           -0.94567362         2313.69326385 
  5.8500e-13          101.51857558            0.00000000        2314.79070253           -0.93813718         2313.85256534 
  5.9000e-13          101.50797665            0.00000000        2314.54902960           -0.93034983         2313.61867977 
  5.9500e-13          101.48056058     77381903.00105305        2313.92389799           -0.92234833         2313.00154967 
  6.0000e-13          101.43933409            0.00000000        2312.98386605           -0.91417363         2312.06969242 
  6.0500e-13          101.38373260            0.00000000        2311.71606065           -0.90587073         2310.81018993 
  6.1000e-13          101.31597197            0.00000000        2310.17100659           -0.89748839         2309.27351820 
  6.1500e-13          101.23869804            0.00000000        2308.40903375           -0.88907882         2307.51995493 
  6.2000e-13          101.15482752            0.00000000        2306.49664772           -0.88069728         2305.61595044 
  6.2500e-13          101.06738109     68892508.72990592        2304.50272520           -0.87240158         2303.63032362 
  6.3000e-13          100.98235937    169562217.57480586        2302.56409000           -0.86425157         2301.69983843 
  6.3500e-13          100.90171504     91051991.64620332        2300.72526642           -0.85630846         2299.86895796 
  6.4000e-13          100.83013437    137291796.43553859        2299.09310925           -0.84863419         2298.24447506 
  6.4500e-13          100.76933384     76790530.79178074        2297.70675696           -0.84129066         2296.86546630 
  6.5000e-13          100.71870633            0.00000000        2296.55236643           -0.83433893         2295.71802751 
  6.5500e-13          100.67788021    174120187.50646010        2295.62146378           -0.82783845         2294.79362532 
  6.6000e-13          100.65335634     55952001.33696831        2295.06227904           -0.82184623         2294.24043281 
  6.6500e-13          100.64095823            0.00000000        2294.77958165           -0.81641596         2293.96316569 
  6.7000e-13          100.63944682            0.00000000        2294.74511908           -0.81159729         2293.93352180 
  6.7500e-13          100.64844831    184333714.88951510        2294.95036799           -0.80743498         2294.14293300 
  6.8000e-13          100.67252935     54293960.88431127        2295.49945517           -0.80396828         2294.69548690 
  6.8500e-13          100.70772319            0.00000000        2296.30193266           -0.80123021         2295.50070245 
  6.9000e-13          100.75021744    138303134.85529304        2297.27087154           -0.79924709         2296.47162445 
  6.9500e-13          100.80102808            0.00000000        2298.42943787           -0.79803803         2297.63139983 
  7.0000e-13          100.85562072            0.00000000        2299.67424003           -0.79761469         2298.87662534 
  7.0500e-13          100.91232226            0.00000000        2300.96712839           -0.79798100         2300.16914740 
  7.1000e-13          100.96940922     93534525.90596628        2302.26880509           -0.79913313         2301.46967196 
  7.1500e-13          101.02759652     44072793.52679916        2303.59557150           -0.80105956         2302.79451194 
  7.2000e-13          101.08391338    136421853.71470761        2304.87968870           -0.80374125         2304.07594746 
  7.2500e-13          101.13807978            0.00000000        2306.11477175           -0.80715197         2305.30761977 
  7.3000e-13          101.18517317            0.00000000        2307.18857854           -0.81125875         2306.37731979 
  7.3500e-13          101.22338099    146989078.74298987        2308.05977976           -0.81602236         2307.24375740 
  7.4000e-13          101.25333019            0.00000000        2308.74267088           -0.82139801         2307.92127288 
  7.4500e-13          101.27058257            0.00000000        2309.13605347           -0.82733597         2308.30871749 
  7.5000e-13          101.27339646     52543282.45657424        2309.20021476           -0.83378242         2308.36643234 
  7.5500e-13          101.26078631     50478875.56357418        2308.91268274           -0.84068015         2308.07200259 
  7.6000e-13          101.23304464    114192522.87103927        2308.28012701           -0.84796942         2307.43215758 
  7.6500e-13          101.18987232    184462270.03999460        2307.29572687           -0.85558880         2306.44013808 
  7.7000e-13          101.13258705     57767040.79904337        2305.98952838           -0.86347590         2305.12605248 
  7.7500e-13          101.05589851    172816247.22602352        2304.24090342           -0.87156821         2303.36933521 
  7.8000e-13          100.95946799    199581971.05128345        2302.04212876           -0.87980378         2301.16232498 
  7.8500e-13          100.84482290            0.00000000        2299.42803193           -0.88818541         2298.53984652 
  7.9000e-13          100.70813257            0.00000000        2296.31126733           -0.89658855         2295.41467878 
  7.9500e-13          100.55048554     82852587.33577287        2292.71665534           -0.90495693         2291.81169841 
  8.0000e-13          100.37641283     64663370.56569895        2288.74751090           -0.91323714         2287.83427376 
